time	whole_blood_radioactivity
0	0
