time	plasma_radioactivity	metabolite_parent_fraction	metabolite_polar_fraction	hplc_recovery_fractions	whole_blood_radioactivity
0	0	0	0	0	0
